frame,x,y,z,capsule_radius,angle_xy,angle_z,velocity
0,0.6766701199999998,-1.3907817000000007,1.11224359,4.234194251239857,131.77598571777344,5.721977423533091,
1,0.41637018999999986,-1.4453092450000002,0.972523405,4.234194251239857,108.02227783203124,30.123938183075147,14.305623968869678
2,-0.14380017,-1.5743632300000003,0.62539558,4.234194251239857,108.57089233398438,7.047527176109054,31.977298146121445
3,-0.9415040800000001,-1.6317947100000008,0.04464262499999999,4.234194251239857,117.74827575683594,86.75452376492623,47.065928037253876
4,-1.625685415,-1.6166303900000005,-0.47570848,4.234194251239857,91.62461853027344,84.90820827996498,40.93851726127115
5,-2.030481925,-1.8829298650000004,-0.311357135,4.234194251239857,-78.19134148133676,,24.36434467363906
6,-2.3447672,-1.9975509750000002,-0.6353874325,4.234194251239857,107.63268280029295,47.03745581327217,22.177845712503512
7,-2.422864245,-1.7554684000000003,-1.9061622974999999,4.234194251239857,107.53211975097656,0.8586146065016915,61.713475139300044
8,-2.373947375,-1.5414788250000004,-2.74754891,4.234194251239857,111.31368255615234,3.242369809234934,41.4071052781236
9,-2.39286579,-1.3186858950000002,-3.0781746500000002,4.234194251239857,58.185791015625,3.5426439710405817,19.00638250804921
10,-2.39842613,-1.0834036399999998,-3.024715765,4.234194251239857,56.83388519287109,30.161829685467637,11.492530284720798
11,-2.38306307,-0.8625984600000001,-2.71690181,4.234194251239857,37.63209915161133,48.040676498455746,18.053861341627616
12,-2.321787075,-0.6841933250000003,-2.775352455,4.234194251239857,8.463052749633789,8.29806629930341,9.403962311822948
13,-2.185652405,-0.4496404650000003,-2.986938675,4.234194251239857,21.155925750732425,3.2137765051040788,16.37959718951835
14,-2.2007946150000004,-0.17161077999999996,-2.9312746350000003,4.234194251239857,174.06471252441406,9.301556792545188,13.521485180371453
15,-2.1342838850000003,0.06563432999999996,-2.9867411,4.234194251239857,170.4307403564453,2.6095726785639104,12.02656245369811
16,-1.959716765,0.3326620899999999,-3.05685188,4.234194251239857,177.9827117919922,25.76195621419034,15.55423730413029
17,-1.8051513800000003,0.6703881500000004,-2.8767690249999998,4.234194251239857,145.7384033203125,1.2279901167777862,19.655720723535353
18,-1.5060111650000003,0.9491710649999998,-2.890402065,4.234194251239857,164.71546936035156,7.491369455594858,19.4825721123493
19,-1.2138142200000002,1.252823265,-2.79762863,4.234194251239857,136.09947204589844,13.911425577543103,20.547529298147115
20,-0.8004768150000001,1.5761806249999997,-2.6683017700000002,4.234194251239857,142.95799255371094,19.538326082198754,25.73778597037941
21,-0.3478778,1.8922292499999998,-2.8450922800000003,4.234194251239857,131.4987030029297,4.530008788830027,27.60210835917617
22,0.11911762999999986,2.2492415350000003,-2.81467019,4.234194251239857,126.4390640258789,14.104006344368273,28.02930143386091
23,0.7351539150000002,2.6391026350000004,-2.663832295,4.234194251239857,126.66380310058594,2.9100207945013983,35.45123610348375
24,1.2318056400000006,2.8530295050000007,-2.44500427,4.234194251239857,106.37996673583984,51.71398626510293,27.77922951131554
25,1.5510854749999998,2.7570197800000003,-2.2352687099999997,4.234194251239857,117.18367004394533,16.36314025247817,18.75649459467526
26,1.8228609699999994,2.6286198350000003,-2.20862409,4.234194251239857,77.29414367675781,22.5818899380546,14.369468872464967
27,1.981038195,2.453015075,-1.71667653,4.234194251239857,104.86769104003906,1.2373188792007632,25.989247211050174
28,2.281813025,2.373190995,-1.194110345,4.234194251239857,59.60898971557617,28.990893345929884,28.962122414068773
29,2.6505838649999998,2.196365565,-1.0965556950000002,4.234194251239857,71.01425170898438,8.37541789576805,20.02130808596294
30,3.0396312300000004,1.763121065,-0.64674286,4.234194251239857,26.21205139160156,87.5778692682797,35.037726202266796
31,3.4465605050000008,1.3633201050000001,0.11776297999999996,4.234194251239857,0.0,88.5071953934481,45.423215763546594
32,3.5008643350000006,1.030653795,0.47075422499999997,4.234194251239857,177.22372436523438,26.222753716197595,23.24173462954796
33,3.4139694300000003,0.6212048550000002,0.294634355,4.234194251239857,5.496932029724121,33.73212873378196,21.624363075878414
34,3.2973684250000006,0.06326542499999999,0.45428746,4.234194251239857,166.5738525390625,18.26259640562458,28.18715053790346
35,3.085344530000001,-0.48297788499999994,0.9039718999999999,4.234194251239857,165.63323974609375,6.167703763281019,35.172138444889676
36,2.8171025250000006,-0.9668612199999997,1.1897138200000001,4.234194251239857,143.9029998779297,22.458621230818366,29.65199897214446
37,2.3821522400000004,-1.423489515,1.37893833,4.234194251239857,140.74655151367188,23.368398703199148,31.35261620438155
38,1.8420074800000004,-1.8423773149999998,1.5390989400000001,4.234194251239857,117.35987091064452,0.7255310083768862,33.43097168631
39,1.3512670700000005,-2.14445923,1.63530326,4.234194251239857,121.69683837890624,19.617110761578896,27.82089235026165
40,0.8884360900000003,-2.4314633850000003,1.476972555,4.234194251239857,112.7479476928711,3.7074964775118624,27.00686538989308
41,0.42336178999999996,-2.660690835,1.2962367549999998,4.234194251239857,109.25740814208984,14.456894191704603,26.1473566149483
42,-0.2541834300000003,-2.91102198,1.1285245599999998,4.234194251239857,89.82486724853516,34.98255090091961,35.31075480799234
43,-0.8793322050000003,-3.03928953,1.18178897,4.234194251239857,94.53514099121094,0.6147947580355423,30.49481025842958
44,-1.3983347449999997,-2.975174295,0.90035833,4.234194251239857,78.95654296875,3.1125779292936513,28.279364567729786
45,-1.8111196799999996,-2.859401,0.454934185,4.234194251239857,74.74187469482422,13.962670527845724,29.4391076587585
46,-2.226929245,-2.746594175,0.236105815,4.234194251239857,-26.84642618458979,,23.010833967594237
47,-2.5880820250000003,-2.5913964949999997,0.0,4.234194251239857,145.947392881769,,21.83548082370873
48,-2.8633112350000003,-2.3566859099999995,-0.25597904,4.234194251239857,37.76056289672852,15.753007508506647,21.10149566802404
49,-3.06443689,-1.9222643599999993,-0.76793712,4.234194251239857,25.401857376098636,86.1931279401041,33.376661903500214
50,-2.9949896,-1.5388093,-1.3977295299999999,4.234194251239857,27.865257263183597,9.399613102547296,35.267014800358375
51,-2.8975283399999996,-1.1143813650000003,-1.823744445,4.234194251239857,174.0106201171875,83.8204770769083,29.009595605842783
52,-2.72967235,-0.6784563800000001,-2.1855483849999997,4.234194251239857,5.617832660675049,10.500180397075768,28.135899426997327
53,-2.4221568749999998,-0.3717797650000003,-2.8047531749999997,4.234194251239857,148.70785522460938,9.260424163486451,36.015582590983826
54,-2.0105393599999997,-0.0033393049999999036,-3.284687205,4.234194251239857,143.87094116210938,12.79163688371184,34.847058922990584
55,-1.58730366,0.21925943000000014,-3.6668215999999996,4.234194251239857,148.28688049316406,3.3845027507224996,29.149133716415545
56,-1.1011941949999997,0.48618425499999995,-3.6894047249999997,4.234194251239857,120.02288818359376,9.278503800216328,26.430127440192866
57,-0.5434278999999997,0.7460696549999999,-3.6024870699999996,4.234194251239857,141.37432861328125,21.185420869779907,29.5927896057176
58,-0.17359758499999955,1.0218917099999993,-3.5038904649999996,4.234194251239857,116.8066864013672,21.791859440644192,22.465572473554023
59,0.31828164000000037,1.2777637249999998,-3.20110193,4.234194251239857,132.29652404785156,18.093684697479773,30.082899707587963
60,0.9363836899999995,1.5475406500000006,-3.22296895,4.234194251239857,104.47262573242188,20.07612367933412,32.13167001228763
61,1.5660648999999998,1.6531883250000008,-2.89980877,4.234194251239857,111.80007934570312,8.803751542518006,34.07648990384571
62,2.2978845750000008,1.6367750450000003,-2.69161161,4.234194251239857,83.23027801513672,2.610097469082356,36.23980003215828
63,2.6757494150000003,1.5181845149999997,-2.4862022149999996,4.234194251239857,98.28988647460938,6.732520817669575,21.244637614359778
64,2.848077305,1.36672087,-2.269391935,4.234194251239857,81.88471984863281,1.1724740414955304,15.031700059264493
65,2.95394255,1.2646580200000002,-2.495567725,4.234194251239857,73.69871520996094,17.25587893689699,12.846535609578
66,3.063892385,1.0952505549999998,-2.0152977649999997,4.234194251239857,139.66021728515625,0.08148644840858879,24.809802113997737
67,3.379351745,0.8775154899999995,-1.0521595974999998,4.234194251239857,142.46278381347656,88.44945134459992,49.36233510551323
68,3.5845458799999994,0.7421988249999996,-0.08413655249999977,4.234194251239857,160.1065216064453,88.305182019926,47.559101518268044
69,3.496939139999999,0.6788838749999999,0.5693718050000002,4.234194251239857,159.6529998779297,0.0,31.542251011734262
70,3.3512108,0.4538007450000001,1.0927592300000002,4.234194251239857,145.79827880859375,87.6414770233661,28.003626309470345
71,3.1698883150000006,0.2664547149999996,1.4372465150000002,4.234194251239857,140.6994171142578,3.598419311645936,20.57274400831748
72,2.9077127899999997,-0.0018694050000003237,1.5960340600000003,4.234194251239857,145.13040161132812,9.207937903594884,19.39839648619605
73,2.4815483449999993,-0.32128992000000034,1.8547053100000004,4.234194251239857,126.63268280029295,5.390841836421235,28.19419277147943
74,1.94954135,-0.6402156500000005,2.1900668775,4.234194251239857,114.14059448242188,4.507696780717581,33.57775843537298
75,1.5363599250000002,-0.8994673150000003,2.6798292125,4.234194251239857,121.6282730102539,0.4637314373152922,32.91566425942751
76,1.1354454399999994,-1.1556054900000001,2.9503529950000003,4.234194251239857,111.1497802734375,3.7317256869001447,26.061252890199366
77,0.7302074849999998,-1.41668752,2.9083347699999997,4.234194251239857,108.12687683105467,3.881990342952747,23.04226412573274
78,0.20957156500000007,-1.5821167750000003,2.515220985,4.234194251239857,111.00991821289062,9.210376933271199,32.04896507330821
79,-0.57256178,-1.7801603350000001,2.493492215,4.234194251239857,102.2699737548828,2.0945388137515546,38.43379207070793
80,-1.1614094600000002,-1.87017759,2.934034505,4.234194251239857,100.07135772705078,13.008503921893073,35.28061160063848
81,-1.63370856,-1.862605475,2.98121707,4.234194251239857,69.3354721069336,2.8994797421659353,22.605257511914346
82,-2.12613371,-1.8920160650000004,2.654710775,4.234194251239857,81.57061004638672,17.513909063352394,28.1699519813008
83,-2.41283228,-1.9066217600000006,2.0148666916666667,4.234194251239857,70.02667999267578,23.231257659472703,33.39483602805199
84,-2.8703440149999997,-1.9739258450000001,1.208920015,4.234194251239857,120.90939320147127,,44.24721504106096
85,-3.2436882199999997,-1.9264628549999996,0.40297333833333326,4.234194251239857,115.12389481721713,,42.356565387451646
86,-3.192006705,-1.6729146599999996,0.173770425,4.234194251239857,38.93590545654297,88.08505589692406,16.460744319123243
87,-3.0731415799999997,-1.5618464449999996,0.224367285,4.234194251239857,64.99747467041016,87.95315733797764,8.11274138087436
88,-3.2013318199999996,-1.3374539349999996,0.05059686,4.234194251239857,114.39410572752371,,14.829407626974863
89,-3.1999846599999997,-1.0396212649999996,-0.70170626,4.234194251239857,177.38172912597656,20.84824873510307,38.52925673776312
90,-2.86785986,-0.9213554999999998,-2.10511878,4.234194251239857,115.02513122558594,13.641094764421068,68.90560724855506
91,-2.41109542,-0.7215912599999998,-2.80499817,4.234194251239857,142.532470703125,16.81178126300775,40.91833207406552
92,-1.9248516749999998,-0.4571151099999997,-3.05788921,4.234194251239857,109.50886535644533,3.455442479058487,28.9786257763938
93,-1.4772353799999998,-0.27981285999999983,-3.3458628399999997,4.234194251239857,137.937255859375,13.41521379244698,26.7144659606841
94,-1.05752968,-0.07957602000000019,-3.7555648949999996,4.234194251239857,111.50630950927734,14.037211451318088,29.51241871570367
95,-0.5652538149999997,0.05433028999999978,-4.176456969999999,4.234194251239857,112.97439575195312,2.7278632612357163,31.494035929550083
96,-0.03783836999999979,0.1409037449999997,-4.225240874999999,4.234194251239857,112.61725616455078,2.047069334354405,25.556920781339443
97,0.41223990499999985,0.20000744499999934,-3.9980318249999995,4.234194251239857,97.8185577392578,0.13225242057011768,24.17283071201369
98,1.0702122849999998,0.26179031999999935,-3.7702715449999995,4.234194251239857,108.41129302978516,11.753123612923392,33.28634516848166
99,1.7346674850000001,0.3557011949999995,-3.6463174549999993,4.234194251239857,100.3096694946289,7.501435989375863,32.495755232236974
100,2.3808673800000006,0.38288724500000004,-3.3492763299999995,4.234194251239857,108.73493957519533,0.39739416152315227,33.89147731828835
