frame,x,y,z,capsule_radius,angle_xy,angle_z,velocity
0,1.4639084600000007,0.7233560700000004,0.90978788,4.521592819157795,165.005859375,0.3107366385358734,
1,1.549203245000001,0.6508774750000001,0.843461185,4.521592819157795,141.78663635253906,3.1647335940698653,6.195524965173593
2,1.8363174850000004,0.7491770349999998,0.52470518,4.521592819157795,135.2648468017578,0.0,20.957941958479378
3,2.0951331599999996,1.0887819699999999,0.22849896999999997,4.521592819157795,124.10435485839844,87.30395428669827,24.746111462763018
4,2.43747938,1.5570526350000007,-0.19429700000000005,4.521592819157795,135.41946411132812,0.0,34.18088412656458
5,2.779224945,1.9509456500000004,-0.95233514,4.521592819157795,165.43740844726562,0.0,43.813756528382584
6,2.7970786200000006,2.19409078,-1.612991165,4.521592819157795,175.130859375,6.500453875583921,33.53357174292533
7,2.703846790000001,2.407208235,-2.11622989,4.521592819157795,16.664356231689453,10.551565109985185,26.40004630014028
8,2.573067655,2.5388380850000005,-2.484117065,4.521592819157795,73.4487075805664,19.94717846375035,19.62058322075483
9,2.4326368149999995,2.7326426450000003,-2.687822005,4.521592819157795,60.42570495605469,81.26021941213554,14.96607886974343
10,2.2480736499999994,2.885922685,-2.801395005,4.521592819157795,58.56967544555664,42.72616175723359,12.639889245960818
11,1.8768117999999996,2.8914807750000002,-2.5003549112499996,4.521592819157795,28.80503505069055,,22.762272943569354
12,1.2576072749999998,2.74224899,-1.7859677937499998,4.521592819157795,55.76729583740234,9.25238263582233,45.57601417653062
13,0.7838028100000001,3.0176151850000004,-1.07158067625,4.521592819157795,145.79339010182727,,42.87476267567969
14,0.43765128000000075,3.5303063000000003,-0.3571935587499999,4.521592819157795,176.91647442102783,,44.99992478631262
15,-0.11395233499999957,3.646385,0.0,4.521592819157795,0.12502268786212892,,31.77757345677949
16,-0.8088968950000002,3.64032237,-0.6324170375,4.521592819157795,124.02812957763672,79.25239393611162,44.74508311772103
17,-1.3041096300000006,3.5634879099999996,-1.8972511125,4.521592819157795,123.39982604980467,33.11753616662257,64.78543732865982
18,-1.6986052000000003,3.30013677,-2.596157505,4.521592819157795,134.85374450683594,10.939070598468009,40.221910612843736
19,-2.139178605,3.05610102,-2.585766365,4.521592819157795,123.17078399658205,18.971226757545196,23.988203273388105
20,-2.3591354700000005,2.859818525,-2.594219605,4.521592819157795,125.30835723876952,26.438417589827402,14.04392990868869
21,-2.535754675,2.6476434600000003,-2.62686426,4.521592819157795,127.5880126953125,11.47346236096998,13.23760493119547
22,-2.931829025,2.3812057649999994,-1.930631385,4.521592819157795,60.566957154582774,,40.19804014456362
23,-3.3246302899999995,1.994594914999999,-0.643543795,4.521592819157795,61.209878419155544,,66.67270801632236
24,-3.4653403849999997,1.5921349999999999,0.023128305,4.521592819157795,159.5259246826172,0.0,37.68303788873841
25,-3.5140699200000003,1.1674119700000003,0.209449225,4.521592819157795,163.6559295654297,0.0,22.20700922133221
26,-3.495742915,0.7359913799999998,0.93198084,4.521592819157795,169.17379760742188,7.4094703345696,40.08244166524107
27,-3.3029220099999996,0.2779311899999999,1.992457735,4.521592819157795,22.87198638916016,3.2204845227178764,55.76941277372656
28,-2.9767952799999993,-0.1748277800000002,2.994733525,4.521592819157795,25.794294357299805,0.9854993569283834,54.62521425221096
29,-2.659246175,-0.6020140400000003,3.296049545,4.521592819157795,24.770246505737305,10.09564042403237,29.126235484300285
30,-2.31363279,-1.0206736750000003,3.3361367150000003,4.521592819157795,27.346019744873047,3.1026379162633706,25.92206543362041
31,-1.8414186949999998,-1.4895241150000005,3.4286081299999998,4.521592819157795,34.8702507019043,8.183578066117539,31.991986283875477
32,-1.2505857000000002,-1.963127145,3.24423862,4.521592819157795,45.32959747314453,7.140857614796275,37.111573340269835
33,-0.6207990050000003,-2.274118035,3.3567324000000003,4.521592819157795,63.208290100097656,1.0763746630415159,33.873228561114786
34,0.0028528450000004923,-2.436270955,3.60406871,4.521592819157795,72.90090942382812,8.872562879954616,32.86785366201706
35,0.5941908700000003,-2.497877975,3.682589265,4.521592819157795,78.35771179199219,5.196595828680819,28.557201310186127
36,1.1751287349999995,-2.4854548800000003,3.58078712,4.521592819157795,86.8587875366211,8.495115564872025,28.091477270755497
37,1.737544915,-2.40690249,3.005548515,4.521592819157795,92.08038330078124,9.917959994040155,38.49144824134597
38,2.278937440000001,-2.24917302,2.06751,4.521592819157795,100.1714324951172,9.581242037798626,52.11840495276428
39,2.742608520000001,-2.0811204950000004,1.299545655,4.521592819157795,117.57867431640624,0.0,43.46139519750434
40,3.112680985000001,-1.9147777750000001,0.6949640850000001,4.521592819157795,135.65533447265625,86.154430955106,34.67184696485442
41,3.4457698200000006,-1.6744244400000001,0.21222564595,4.521592819157795,135.0,86.9095956656462,30.18290043840429
42,3.6903287050000007,-1.37433116,0.00565819595,4.521592819157795,136.48439025878906,87.24351058649137,20.89467900525544
43,3.7679121450000004,-1.0708864549999997,0.0,4.521592819157795,79.43394932557568,,14.916995917483552
44,3.75881506,-0.7447788049999997,-0.128258902,4.521592819157795,164.04986572265625,13.258193087760436,16.692449600493056
45,3.8186186949999996,-0.37334946999999996,-0.384776706,4.521592819157795,84.92776754988188,,21.683018917062306
46,3.79130634,0.11593785000000034,-0.64129451,4.521592819157795,9.820013046264648,79.15393031862234,26.33937888140256
47,3.56839304,0.8363824000000006,-0.8978123140000001,4.521592819157795,22.613285064697266,20.52528491019797,37.93215308203512
48,3.2197822599999997,1.5731469100000002,-1.154330118,4.521592819157795,36.60725784301758,40.81885050081967,40.689990046880844
49,3.0253125249999995,2.13633387,-1.832526425,4.521592819157795,47.865272521972656,10.037582697836418,42.98784990431108
50,2.6203236149999993,2.4802314400000003,-2.430686775,4.521592819157795,80.25096130371094,2.9771895202319674,38.09754041218521
51,1.682024769999999,2.8216332250000002,-2.18902144,4.521592819157795,95.14500427246094,16.913982951834743,48.919435723875274
52,0.7804178999999989,3.1882018700000008,-1.6092448799999999,4.521592819157795,97.40901947021484,0.06840807195749471,53.9464834975791
53,-0.18469560499999993,3.2377889250000007,-1.7853137550000002,4.521592819157795,105.35372161865234,17.789896717153418,46.77594596438766
54,-1.0507811949999994,3.3203041100000004,-2.4799419250000003,4.521592819157795,119.21575164794922,6.483178663896701,53.01395228834382
55,-1.608256565,3.43747616,-2.5033159200000004,4.521592819157795,116.58350372314452,8.842473783823527,27.149306714947027
56,-2.0135678249999995,3.313509365,-2.207396685,4.521592819157795,119.8481216430664,13.841165510956273,24.615555494629245
57,-2.426674645,2.8790172049999994,-2.3300497250000003,4.521592819157795,144.41448974609375,61.268895906864266,29.140540292795798
58,-2.9134229350000007,2.2878835999999994,-2.569180325,4.521592819157795,147.4957275390625,79.08991564681658,38.20063635882266
59,-3.2438301700000003,1.9531451099999995,-2.48168279,4.521592819157795,152.59312438964844,5.728828677757193,22.781353329949336
60,-3.4450999500000004,1.5810291649999995,-2.479283735,4.521592819157795,163.21949768066406,5.73782799202753,20.146040293874474
61,-3.5995481300000005,1.0802058799999994,-1.9426781699999998,4.521592819157795,74.33065210879411,,35.71821360916087
62,-3.71156552,0.6719328949999999,-0.64755939,4.521592819157795,177.33714294433594,86.46290775682762,64.88376805164982
63,-3.74197195,0.3927158550000005,0.076410705,4.521592819157795,172.77932739257812,86.12371201288259,36.97824956294259
