frame,x,y,z,capsule_radius,angle_xy,angle_z,velocity
0,1.9348541800000003,3.020800930000001,0.0,4.246586654074386,25.48609775261951,,
1,1.5590251300000002,2.8061967750000005,-0.331895885,4.246586654074386,122.62577056884766,27.292192339417312,25.971259915595187
2,0.8552796149999997,2.301516185,-0.7084556049999999,4.246586654074386,137.87509155273438,23.601907477565483,44.96805292114523
3,0.22617662999999943,1.678408075,-0.851650485,4.246586654074386,147.44078063964844,5.87649641094711,42.71242911880325
4,-0.24969915000000054,0.9750902050000003,-0.9443084850000001,4.246586654074386,162.05154418945312,3.3472230008097528,40.67735136807546
5,-0.55791243,0.25434886000000034,-0.82813309,4.246586654074386,169.03871154785156,0.23020736977533143,37.735210488035655
6,-0.7963447749999997,-0.3609576849999998,-0.80615814,4.246586654074386,163.49786376953125,0.0,31.440655176625402
7,-0.8111243899999998,-1.2235323249999999,-0.38885057500000003,4.246586654074386,42.27261352539063,0.0,45.634828029090755
8,-0.5706969700000002,-1.9178345849999996,0.24495814000000002,4.246586654074386,72.97247314453125,4.401330088528315,46.2070284466121
9,-0.11217283499999997,-1.9915441149999995,0.73104234,4.246586654074386,99.73917388916016,0.01874852292453129,32.01315371237505
10,0.6083871600000004,-1.801735795,1.2842319199999999,4.246586654074386,117.11920928955078,3.7934995171365835,44.19223662739837
11,1.33840205,-1.3776245399999998,1.78442563,4.246586654074386,136.8671875,2.0546923803560553,46.72944862800102
12,1.9387247250000001,-0.6902057299999997,1.911770165,4.246586654074386,152.24368286132812,15.186985791570446,43.880598790796626
13,2.3408505899999996,0.1919845050000002,1.74900982,4.246586654074386,163.14593505859375,10.107156440281674,46.813562581563275
14,2.37369917,0.9275979750000003,1.530961505,4.246586654074386,41.11277389526367,0.0,36.569173855588595
15,1.9899178600000011,1.3972164400000002,0.962666625,4.246586654074386,69.87429809570312,11.44899808220561,39.57795107578348
16,1.4178842750000014,1.6739249950000001,0.5117881799999999,4.246586654074386,93.51258087158205,0.0,37.10258558396335
17,0.9003312950000009,1.7643385200000004,0.21363477666666664,4.246586654074386,123.83252716064452,84.59691377174344,28.766443371369736
18,0.15929274500000012,1.3136928650000002,-0.15178887000000008,4.246586654074386,147.5311737060547,23.047534983631675,44.81643285887681
19,-0.5123452749999995,0.5168261149999998,-0.5172125166666668,4.246586654074386,168.79310607910156,9.429888560300203,52.588952581115294
20,-0.7861345200000001,-0.12778739999999988,-0.584331005,4.246586654074386,170.5326690673828,10.705096794921074,33.5026998564974
21,-0.9197975249999999,-0.9524506399999999,-0.10751319000000001,4.246586654074386,20.08793830871582,0.0,45.80572420175172
22,-0.8809035699999992,-1.538868275,0.533453785,4.246586654074386,46.34965515136719,0.0,41.410424197706334
23,-0.5651985499999999,-1.71704378,0.9726090150000001,4.246586654074386,82.71420288085938,2.2607672597102826,27.116674350418826
24,0.07294251999999979,-1.7898964149999999,1.4529795550000002,4.246586654074386,105.62821197509766,2.0541156889529937,38.19295168758442
25,0.8472549999999996,-1.5440970999999997,1.872740615,4.246586654074386,127.88300323486328,6.550192531856091,43.544135803584965
26,1.493217304999999,-0.9738143099999998,1.9407276900000001,4.246586654074386,140.09393310546875,2.374980672895786,41.15982901759571
27,1.8999712349999989,-0.22659206500000018,2.0365824200000002,4.246586654074386,155.900390625,0.0,40.76863463182189
28,1.9543755049999998,0.43048463499999956,1.865106195,4.246586654074386,169.29461669921875,0.0,32.44090074051153
29,1.8132932950000002,0.8923970049999999,1.3297736050000002,4.246586654074386,59.49122619628906,87.64811945067581,34.333571409702564
30,1.6163975199999996,1.160786925,0.7154002850000003,4.246586654074386,106.7354965209961,87.90237614044636,33.27394954219725
31,1.2594790349999991,1.17931828,0.24631150333333357,4.246586654074386,99.6344985961914,84.88111130707517,28.08226097140503
32,0.5376279549999996,0.8613612800000001,0.06250967000000024,4.246586654074386,139.5067596435547,20.71871851977021,38.56698238580019
33,-0.22524822499999964,0.37397013,-0.1212921633333331,4.246586654074386,145.3040771484375,11.30407675714866,43.98807592103212
34,-0.6217035549999999,-0.0754245250000003,-0.1916887399999998,4.246586654074386,159.75515747070312,0.06118557546759051,28.733195330664547
35,-0.8257393400000002,-0.9170792699999999,-0.005602104999999788,4.246586654074386,18.067041397094727,0.0,42.1809498830006
36,-0.7465861399999998,-1.7005161199999996,0.38667824000000023,4.246586654074386,44.09764862060547,1.9539087595003928,41.8918377277958
37,-0.3784406949999992,-1.891971205,0.7936090400000002,4.246586654074386,90.09745025634766,0.13967046672291208,27.675590489155965
38,0.11859057000000117,-1.839604375,1.1903915500000002,4.246586654074386,113.09064483642578,7.774762470924581,30.387472188672522
39,0.6919476250000001,-1.5322920199999999,1.5964370550000002,4.246586654074386,126.90955352783205,2.8417994623480607,36.51645633389261
40,1.1847844050000003,-1.0061455500000003,1.8866820800000004,4.246586654074386,149.0347137451172,3.565267473474191,37.00708929299714
41,1.466433695000001,-0.2515458700000006,1.929222895,4.246586654074386,155.6095733642578,9.61029644331067,38.40814116017269
42,1.5751818850000001,0.5563114649999998,1.7683035450000002,4.246586654074386,162.64483642578125,11.627670723105737,39.56551671345547
43,1.5411015099999998,1.1588106700000003,1.5486819600000001,4.246586654074386,107.98186492919922,0.0,30.580194729817737
44,1.3887414700000003,1.403208345,1.1473849950000004,4.246586654074386,162.371826171875,87.91713085840769,23.52125778778242
45,1.2000053250000002,1.4102851699999999,0.6967618500000002,4.246586654074386,154.72691345214844,88.13477844828805,23.2667969067965
46,0.9383917850000003,1.3450590299999998,0.2647624850000002,4.246586654074386,56.823621365004726,,24.249251105206188
47,0.3423390949999998,0.8478279999999998,-0.10542023666666644,4.246586654074386,5.018194675445557,86.36978138613682,40.95107289914413
48,-0.08998321000000065,0.22324681000000002,-0.3162607099999998,4.246586654074386,165.74681091308594,13.72092677005218,37.53933518239166
49,-0.2151561950000005,-0.16660776500000019,-0.5271011833333331,4.246586654074386,160.69937133789062,87.64833756396487,21.931069658513863
50,-0.3353752600000002,-0.9638278850000002,-0.18886395999999978,4.246586654074386,35.98606872558594,5.361731790090842,41.633781923002026
51,-0.16336967500000021,-1.636403155,0.3794555100000002,4.246586654074386,78.37493896484375,0.0,42.72281687560523
52,0.18722197999999945,-1.72025207,1.0174078400000002,4.246586654074386,104.58524322509766,6.9340550080944805,34.893044367736884
53,0.7192120099999997,-1.6292428649999997,1.5664262400000002,4.246586654074386,132.30406188964844,9.611401263667032,36.66101598241993
54,1.3168896750000005,-1.1701422849999998,1.8885434500000002,4.246586654074386,145.6114044189453,9.464949474507106,39.0287826452712
55,1.6882199450000002,-0.5023886900000001,2.1203635950000006,4.246586654074386,158.22958374023438,11.805847975559052,38.02140501928656
56,1.9001227499999995,0.18095364499999977,2.17770902,4.246586654074386,162.7198944091797,5.387264866693964,34.17800685667796
57,1.9883125650000002,0.9325319449999996,2.28048935,4.246586654074386,1.5023823976516724,7.944704776353246,36.36584019012396
58,1.9559796350000003,1.4203583099999997,1.8879093500000002,4.246586654074386,79.9820785522461,0.0,29.857524002712584
