frame,x,y,z,capsule_radius,angle_xy,angle_z,velocity
4,-2.4187319800000004,-0.5713474299999994,0.0,4.202804860519211,88.93911413686787,,-1.1387168871758349
5,-2.471104585,-0.007169839999999983,0.11602006000000001,4.202804860519211,120.06690216064452,84.55940123642334,27.54093622422441
6,-2.3456595399999993,0.6462954399999998,0.34806018000000005,4.202804860519211,141.2808837890625,17.131727493325485,33.556935364294105
7,-2.0502402749999993,0.9248765700000003,0.5801003000000001,4.202804860519211,88.24346160888672,84.47076719153013,22.270375542208576
8,-1.70707182,1.13361345,0.8121404200000002,4.202804860519211,97.03915405273438,23.219120440169867,22.089197186761574
9,-0.9704265700000003,1.2052050899999993,1.0441805400000002,4.202804860519211,70.95027923583984,28.169937016594833,36.93513971107108
10,-0.19048793499999972,1.0812648349999998,1.1110842450000002,4.202804860519211,58.02766036987305,8.184048773693751,37.74065837526305
11,0.28305763000000095,0.7319697349999998,1.2504136850000003,4.202804860519211,41.85367965698242,1.0087299027618992,28.79535904696709
12,0.7519958300000011,0.44466343499999983,1.1276937100000002,4.202804860519211,20.376480102539062,0.1042709883328952,26.83231449888716
13,1.1001699250000003,-0.014626024999999654,0.4082639700000001,4.202804860519211,85.35417138107252,,43.89616585854382
14,1.1871956499999996,-0.4993296799999998,0.0,4.202804860519211,154.08880615234375,0.0,30.460955238865417
15,1.1891544349999998,-0.627037885,0.0,4.202804860519211,144.58847045898438,85.45112892895352,6.082058381539818
16,0.6991542049999993,-1.00376573,0.0,4.202804860519211,9.744785501670293,,29.432427494261887
17,0.07538125499999904,-1.5006511850000002,0.0,4.202804860519211,2.3888307890491,,37.97564109297377
18,-0.11899912000000068,-1.505723235,-0.04413138999999989,4.202804860519211,71.353515625,4.941481766107127,9.49484111742099
19,-0.33174171000000063,-1.2293359750000001,-0.3956904149999999,4.202804860519211,44.45170593261719,87.47487849610705,23.5819156637028
20,-0.7623926200000004,-0.8103103550000004,-0.3515590249999999,4.202804860519211,-56.557735419330236,,28.68984413781343
21,-1.0774507299999998,-0.222285265,0.23409734500000012,4.202804860519211,155.76808166503906,0.0,42.27189024536017
22,-0.9848854749999996,0.42727929,0.5530985150000001,4.202804860519211,124.47257232666016,0.0,34.7411609341753
23,-0.6581761150000003,0.8421772699999996,0.8803210650000001,4.202804860519211,81.63201904296875,2.2448547647726866,29.58342433436964
24,-0.2255118949999999,0.931345265,1.322485635,4.202804860519211,56.75380325317383,8.441897346340554,29.763191041301816
25,0.2282991200000004,0.8310691800000001,1.56305117,4.202804860519211,39.02180862426758,10.698095749091735,24.920349632847092
26,0.6703644049999995,0.6074423549999999,1.406647125,4.202804860519211,25.625804901123047,2.7865147223362863,24.738674925793138
27,0.9680040849999991,0.304566275,1.210692265,4.202804860519211,12.34992790222168,8.28423036188753,22.27032466715963
28,1.1498025299999997,-0.1342517700000001,1.0296892999999998,4.202804860519211,1.4594835042953491,23.43475192142035,24.205002413990712
29,1.26666926,-0.5105141300000002,0.48984691999999996,4.202804860519211,158.27783203125,21.472185421254608,31.825095681588106
30,1.0984167649999996,-0.8676708500000001,0.06608819,4.202804860519211,48.92479405461138,,27.579663461648963
31,0.7441007549999998,-1.208254765,0.0,4.202804860519211,109.57633209228516,0.0,23.613713249215007
32,0.30457631500000026,-1.3582373099999998,-0.45006317,4.202804860519211,89.25260162353516,31.13759613864808,30.79569698393948
33,-0.16421050499999978,-1.4329533749999999,-0.753604645,4.202804860519211,75.02249145507812,7.080503222815643,26.83116778433505
34,-0.6140395600000002,-1.3733716299999998,-0.7923687349999999,4.202804860519211,55.481258392333984,0.0,21.68621921181449
35,-1.2507203750000002,-0.5635325899999994,0.20736563499999988,4.202804860519211,91.56490325927734,83.84697445390864,68.35731355332692
36,-1.7310202549999998,0.23797966000000015,2.5774059449999998,4.202804860519211,131.05029296875,83.8974640722927,121.3136798451866
37,-1.4476477399999998,0.3850042949999999,3.1465344149999996,4.202804860519211,120.5291748046875,12.718608466002612,31.073880250615463
38,-0.8826839199999998,0.5533310149999999,1.914751045,4.202804860519211,86.63475799560547,34.338935272468866,65.02761097122307
39,-0.42283249499999975,0.567637435,1.55593051,4.202804860519211,76.1755142211914,5.355285733739363,27.783589630501037
40,0.0636416350000002,0.4311025500000003,2.06584372,4.202804860519211,57.829620361328125,4.334690040620096,34.18339015686061
41,0.52048468,0.26302784000000035,2.12730979,4.202804860519211,40.72816848754883,15.643594364619513,23.36405915112916
42,0.9296230599999995,0.09316836999999989,2.373643755,4.202804860519211,13.276898384094238,18.523637919198855,24.137121317815506
43,1.1305461149999996,-0.16736583500000002,2.132165945,4.202804860519211,6.439630508422852,7.467972310070919,19.434154119019272
44,1.2438337700000002,-0.673258975,0.9411610399999999,4.202804860519211,156.89784240722656,0.0,61.85446025211554
45,1.181126645,-0.9403183849999999,0.17831748000000003,4.202804860519211,136.39759826660156,85.42308758053277,38.603255799762806
46,0.7604246250000002,-1.0358654549999997,-0.32373535999999997,4.202804860519211,113.03561401367188,87.50642618336884,31.52138123181302
47,0.36775904000000015,-1.201835515,-0.6151678300000001,4.202804860519211,81.92731475830078,17.089290077027773,24.590303152636032
48,0.0981123049999999,-1.22256301,-0.7698603150000001,4.202804860519211,74.4978256225586,1.2121159163119313,14.836123383604587
49,-0.31344388499999987,-1.11096461,-0.9588829700000001,4.202804860519211,63.23430252075195,11.272342651134252,22.211223925838265
50,-0.7805428699999997,-0.7675806749999996,-1.0967326800000001,4.202804860519211,66.74097442626953,0.6415129341184642,28.376179334625654
51,-1.1089377699999998,-0.42351128999999954,-1.246503005,4.202804860519211,70.22357940673828,87.04402539627506,23.745537940594122
52,-1.5337478150000003,-0.08038370000000006,-0.6665799200000001,4.202804860519211,155.94696044921875,0.0,37.93152028317952
53,-1.7344439550000001,0.11948683999999998,0.3193622499999999,4.202804860519211,52.531700134277344,0.0,48.848628608232076
54,-1.6873649499999996,0.1848738400000003,0.7362466966666665,4.202804860519211,48.44724655151367,83.30420014807804,20.21901253576588
55,-1.3685246849999997,-0.013797949999999837,0.93129109,4.202804860519211,56.2104377746582,5.114886880506126,20.156525256748658
56,-0.803214825,-0.5244041199999998,1.1263354833333334,4.202804860519211,52.78313446044922,7.081263629426273,37.444932024233225
57,-0.299574625,-0.8976990499999999,1.235605085,4.202804860519211,62.49560928344727,17.77098299256613,30.302421330258426
58,0.30534982999999993,-1.180741905,1.2641208149999998,4.202804860519211,72.13397216796875,2.6234548522839987,31.83218471700007
59,0.7622988549999996,-1.2650887600000003,0.9430656249999999,4.202804860519211,87.68595123291016,0.0,26.894993524736915
60,1.0193778299999994,-1.3253017800000002,0.5713891199999999,4.202804860519211,97.1609115600586,88.27049576652645,21.710245631551043
61,1.2051020849999992,-1.2082976750000003,0.13989301249999986,4.202804860519211,34.08774948120117,87.32079540434864,23.053341982791284
62,1.1805192249999994,-0.8223726300000003,-0.6553932225000001,4.202804860519211,68.77123260498047,8.089640808344223,42.110497475173474
63,0.8987939599999999,-0.5621534850000001,-1.0594189750000003,4.202804860519211,74.3365707397461,10.59158001369873,26.526841625743625
64,0.479374065,-0.42046392,-1.17442043,4.202804860519211,86.69151306152344,17.855476515613876,21.780929258728495
65,-0.05794622500000024,-0.3207954449999999,-1.3933966150000001,4.202804860519211,92.6965103149414,21.630064291021192,28.03453767833957
66,-0.5597007650000005,-0.28793770500000004,-1.232277805,4.202804860519211,106.25187683105467,1.0781848448394749,25.143421729967674
67,-0.9468785100000003,-0.2745614550000002,-0.9992486750000001,4.202804860519211,119.31399536132812,0.0,21.528239415389116
68,-1.27827366,-0.22718315500000008,-1.0718651600000002,4.202804860519211,128.51478576660156,0.0,16.311911722873003
69,-1.51676258,-0.328901385,-1.2424453850000001,4.202804860519211,141.8862762451172,5.277330817713185,14.778882436534307
