frame,x,y,z,capsule_radius,angle_xy,angle_z,velocity
6,0.805493890000001,3.18861491,-4.00868074,5.164868384868939,110.51344299316406,9.557387613692859,-5.599735044583298
7,1.0867663850000007,3.20733229,-3.9631475849999998,5.164868384868939,129.560302734375,1.4485474942112757,13.597537538994374
8,1.8611646050000004,2.904945240000001,-2.9382108225,5.164868384868939,-59.58654873979212,,62.84317843206299
9,2.48788678,2.3374261300000008,-0.9794036075,5.164868384868939,108.51692181083223,,101.59481491746186
10,2.8088064500000005,1.8873006549999998,0.05996539,5.164868384868939,8.867009162902832,0.0,56.05897224497928
11,3.093934485000001,1.3640438450000003,0.26841072,5.164868384868939,2.592067241668701,0.0,30.062110351825268
12,3.210236605,0.766774540000001,0.514048415,5.164868384868939,165.89085388183594,5.658788030148685,31.247482729147418
13,3.1269460999999996,0.28209976000000037,0.8083771,5.164868384868939,151.11692810058594,0.4745171643393373,27.291835322947048
14,2.7856802849999998,-0.19286830500000018,1.274087215,5.164868384868939,137.45985412597656,4.66729273261028,35.60118378343333
15,2.240456424999999,-0.7821850649999997,1.867147005,5.164868384868939,135.5900115966797,10.031200325606527,47.530470371200586
16,1.5990771549999998,-1.2813670399999992,2.44106791,5.164868384868939,109.8594970703125,11.97798402837074,47.378803907897186
17,0.9270660450000006,-1.567815504999999,2.257034405,5.164868384868939,97.65514373779295,17.25706942568233,35.873296368624736
18,0.21055973500000036,-1.7875067649999994,1.55033674,5.164868384868939,87.67626953125,4.189665772602155,49.05148231911212
19,-0.5418911549999996,-1.8904146949999996,1.279710425,5.164868384868939,85.42475891113281,2.974347335226426,38.392028009922065
20,-1.2156827399999997,-1.8031415599999994,1.225040415,5.164868384868939,62.9598274230957,0.0,32.45790960497973
21,-1.7323580549999997,-1.6219019499999998,0.920081915,5.164868384868939,66.28475952148438,0.0,29.844679713869812
22,-2.30824392,-1.2882234750000006,0.435481565,5.164868384868939,40.68181610107422,87.34754313463537,39.204775306263606
23,-2.82150811,-0.7585480749999998,0.15363934,5.164868384868939,10.636096000671388,87.746029113384,37.598885431642
24,-3.012765545,-0.1530335849999993,0.05437326,5.164868384868939,161.18931579589844,88.22682461773192,30.605416453368864
25,-2.9072258450000006,0.6637003850000003,0.0,5.164868384868939,151.9374237060547,87.98139992292849,39.30084722769008
26,-2.65511327,1.437829315,0.0,5.164868384868939,138.91773986816406,87.82656726014086,38.76893439053941
27,-2.40282313,1.8608509049999995,0.0,5.164868384868939,51.65196306450543,,23.454378950296217
28,-2.0540177,2.2053984899999994,-1.06329,5.164868384868939,159.72496032714844,3.1890507120918676,55.75627010746538
29,-1.2155231000000004,2.6506667649999995,-3.18987,5.164868384868939,129.69259643554688,2.050517150473777,110.89902178351764
30,-0.20512950500000038,3.005569105,-4.202620635000001,5.164868384868939,122.5610122680664,1.823237099555904,70.18787125177535
31,0.4067978099999996,3.093542105000001,-4.161983800000001,5.164868384868939,133.92750549316406,0.9820274804574796,29.502513053761398
32,0.9295141599999996,2.9852339499999996,-4.1778879600000005,5.164868384868939,141.5937042236328,11.44220680432172,25.431245681659707
33,1.4244686999999998,2.7167799499999985,-4.2251805650000005,5.164868384868939,130.43971252441406,6.863947687760106,26.907253878285648
34,1.87195833,2.2990190749999986,-3.122635240000001,5.164868384868939,126.41101028636982,,60.05245838506468
35,2.3172668549999997,1.6970983099999994,-0.8349626400000006,5.164868384868939,18.59329032897949,0.0,114.62305584388366
36,2.6083743499999996,1.1058813550000002,0.4091102599999995,5.164868384868939,10.763049125671388,0.0,67.03974591962877
37,2.73458394,0.45366067500000007,0.5895506199999996,5.164868384868939,171.91162109375,4.770660372215007,32.78042802576395
38,2.73775475,-0.3483987449999999,0.7824627999999996,5.164868384868939,161.18447875976562,84.88638882408573,39.282813065720454
39,2.57591935,-1.0326869949999997,0.9534259149999995,5.164868384868939,150.33348083496094,6.223152930899388,34.45952940193108
40,2.2128307099999995,-1.5846836400000002,1.2913513549999995,5.164868384868939,133.46983337402344,0.0,35.338571668797016
41,1.7726080449999992,-2.0103503750000007,1.5922391149999995,5.164868384868939,112.26078033447266,4.486266996752322,32.49006853952652
42,1.2877195899999996,-2.3134580450000004,1.2890818249999996,5.164868384868939,109.3871612548828,17.983813478183798,30.82006207808782
43,0.6105522450000005,-2.52507637,0.7747676199999995,5.164868384868939,84.54681396484375,0.0,41.72735797768701
44,-0.2079652799999998,-2.5888583599999997,0.5044025699999996,5.164868384868939,77.060546875,0.0,41.160499448311384
45,-0.88532951,-2.3963001350000006,0.6759737599999995,5.164868384868939,62.640411376953125,0.0,34.514371233228026
46,-1.384038655,-2.0812730250000007,0.9612936599999995,5.164868384868939,46.735164642333984,0.0,31.202663437888194
47,-1.7591226250000003,-1.703386075,0.8199729399999995,5.164868384868939,18.83081817626953,0.0,26.23191861585604
48,-1.8910411250000005,-1.1749706949999998,0.32266432999999956,5.164868384868939,21.95458602905273,88.22236286907554,35.120174575717286
49,-1.9654620400000007,-0.5792654700000002,-1.1582082150000004,5.164868384868939,137.32057189941406,33.265231039019206,76.09200008332965
50,-2.0874645400000005,0.09451049499999975,-3.4746246450000005,5.164868384868939,132.57322692871094,8.381496200697363,115.02384390682553
51,-2.112713905,0.7023103700000002,-4.619237999999999,5.164868384868939,122.57396697998048,8.353226277195217,61.72497612668328
52,-1.9856353549999999,1.1770682099999998,-4.5970978250000005,5.164868384868939,131.32052612304688,1.2176277753916698,23.427126932850463
53,-1.5607379649999995,1.6195150199999997,-4.621846575000001,5.164868384868939,132.0934600830078,2.38235975080238,29.234739699435778
54,-0.9073019199999997,2.0023109050000008,-4.671835425,5.164868384868939,144.4761505126953,1.5571318141985178,36.140637349566425
55,-0.23424691999999947,2.1754089200000006,-4.690047155,5.164868384868939,148.61029052734375,7.276798694810622,33.10457637803284
56,0.46513876500000073,2.05162538,-4.71702724,5.164868384868939,133.470458984375,8.678097960805966,33.84607769571328
57,1.1453774150000005,1.7514316799999996,-3.488441545,5.164868384868939,77.72062683105469,88.3156436899728,68.3837326738162
58,1.7287162150000004,1.45137553,-0.9803438750000004,5.164868384868939,58.66484832763672,87.29856431322224,123.45068668532654
59,2.305125235,1.1030143600000004,0.48583428499999953,5.164868384868939,43.15839385986328,86.36992086105487,76.8318430649534
60,2.7029814650000006,0.6232364349999999,0.7254746549999995,5.164868384868939,11.979580879211426,12.067626506670313,31.79811400733871
61,2.872774895,-0.03148836500000041,0.8071474849999996,5.164868384868939,2.3810861110687256,10.966355774200625,32.44268708119841
62,2.905572105,-0.7114889050000004,0.7855418099999996,5.164868384868939,161.62916564941406,5.50124778567887,32.43494086724781
63,2.72752195,-1.2911482500000004,0.6548438799999996,5.164868384868939,150.21014404296875,1.669929393847086,29.538735199827507
64,2.479738959999999,-1.7172849250000004,0.44196955499999957,5.164868384868939,143.6841583251953,0.43290860243138013,25.568562141268057
65,2.141623394999999,-1.996967375,0.14792150999999956,5.164868384868939,130.39134216308594,5.988736787804928,25.152985915336735
66,1.6724637800000002,-2.3655899149999997,0.29208307999999955,5.164868384868939,128.63243103027344,84.56867810130781,29.22955822349584
67,1.0269974250000011,-2.8281730899999995,0.32109865499999957,5.164868384868939,96.64280700683594,7.6056115735536265,37.83997552717438
68,0.19654470500000087,-3.097117395,0.07410745499999954,5.164868384868939,85.41062927246094,0.0,43.19935888667143
69,-0.6239849399999993,-3.0188673450000003,0.039183219999999554,5.164868384868939,65.8751220703125,85.80993773562066,39.2853296038645
70,-1.1890587849999998,-2.75130638,0.21931454499999956,5.164868384868939,51.66131210327149,0.0,30.98330376732009
71,-1.64447592,-2.339769865,0.7481880449999996,5.164868384868939,43.37874603271485,9.327896072068281,38.58242785650028
72,-2.028849995,-1.8409503149999997,1.1866920099999996,5.164868384868939,19.169124603271484,86.61340374368928,36.54122327518304
73,-2.169301615,-1.3566366200000002,1.2789964199999995,5.164868384868939,166.43466186523438,87.17639412685466,24.41174194400405
74,-2.24786157,-0.7811714250000001,0.6211779099999996,5.164868384868939,75.03920256269863,,41.7870926182824
75,-2.1824819149999994,-0.04327242999999914,-1.1978249650000004,5.164868384868939,135.0,15.596798452523876,93.52677821600237
76,-1.87003706,0.680444650000001,-3.593474895,5.164868384868939,135.9242706298828,1.2315565472419465,120.09564202953764
77,-1.5246577800000005,1.240752275000001,-4.766939045000001,5.164868384868939,149.26719665527344,4.684104496193845,64.06929342979667
78,-1.2014738300000007,1.6510831450000003,-4.734072585000001,5.164868384868939,133.92750549316406,0.4803189784842648,24.92162283679989
79,-0.6075099650000007,2.0500607549999996,-4.701830695,5.164868384868939,132.57322692871094,8.381496200697363,34.1071988091562
80,0.20087464499999985,2.256544525,-3.4266905225000004,5.164868384868939,-15.23803955991563,,72.56404918864534
81,0.8589607849999998,2.119726075,-0.9238826675000004,5.164868384868939,83.5656509399414,87.67937917997196,123.4045006563592
82,1.3160984999999998,1.9605101600000001,0.4073652649999996,5.164868384868939,63.02408599853516,0.0,67.4536147980244
83,1.79300103,1.7321279299999999,0.4884220349999996,5.164868384868939,51.1190299987793,3.9995148101245976,25.473505246248077
84,2.2625755100000005,1.3596727249999994,0.5793998199999995,5.164868384868939,31.122589111328125,3.774895172299182,28.86751461270384
85,2.569470635,0.8517597649999997,0.6709000149999995,5.164868384868939,14.665535926818848,9.922760576251463,28.592550857824662
86,2.755763129999999,0.19484907000000007,0.8388562099999994,5.164868384868939,4.6095781326293945,38.19966005376328,33.484210863968904
87,2.9815793699999995,-0.4893233800000001,1.8596427249999992,5.164868384868939,165.25059509277344,83.15308608887842,59.49694679169854
88,2.76782212,-1.046133415,3.568773714999999,5.164868384868939,144.8396759033203,82.90862065192879,86.20045085642997
89,2.1783916750000003,-1.6057819349999995,4.381379569999999,5.164868384868939,131.8523712158203,83.32379188175953,54.73007337834081
